"Time","Position","Velocity","Acceleration"
0.02,0.230,2.073,-8.327
0.04,0.273,1.920,-9.528
0.06,0.309,1.739,-11.472
0.08,0.345,1.452,-12.922
0.10,0.367,1.158,-11.497
0.12,0.389,0.987,-9.630
0.14,0.407,0.800,-8.731
0.16,0.421,0.647,-8.294
0.18,0.434,0.450,-7.371
0.20,0.436,0.356,-6.706
0.22,0.449,0.224,-7.947
0.24,0.447,0.027,-8.917
0.26,0.449,-0.134,-9.856
0.28,0.443,-0.369,-10.313
0.30,0.434,-0.575,-9.337
0.32,0.420,-0.774,-7.224
0.34,0.399,-0.829,-6.803
0.36,0.388,-0.970,-9.905
0.38,0.364,-1.243,-12.437
0.40,0.338,-1.500,-13.353
0.42,0.305,-1.804,-12.617
0.44,0.264,-2.026,-10.432
0.46,0.223,-2.222,-7.017
0.48,0.175,-2.387,2.618
0.50,0.126,-2.337,23.767
0.52,0.073,-1.711,55.065
0.54,0.030,0.168,69.677
0.56,0.084,1.836,47.775
0.58,0.131,2.218,16.330
0.60,0.177,2.194,-2.827
0.62,0.223,1.895,-9.969
0.64,0.252,1.649,-8.605
0.66,0.283,1.607,-8.854
0.68,0.320,1.398,-13.080
0.70,0.344,1.000,-13.840
0.72,0.356,0.761,-10.794
0.74,0.373,0.597,-8.531
0.76,0.381,0.442,-7.437
0.78,0.389,0.333,-8.106
0.80,0.396,0.127,-9.193
0.82,0.395,-0.082,-8.400
0.84,0.391,-0.204,-7.979
0.86,0.387,-0.350,-9.737
0.88,0.379,-0.582,-12.010
0.90,0.365,-0.870,-12.478
0.92,0.343,-1.112,-11.282
0.94,0.320,-1.321,-9.900
0.96,0.289,-1.503,-8.823
0.98,0.259,-1.651,-8.806
1.00,0.224,-1.845,-8.724
1.02,0.185,-2.053,-4.252
1.04,0.143,-2.181,10.069
1.06,0.093,-1.946,37.233
1.08,0.042,-0.650,59.892
1.10,0.059,1.050,53.231
1.12,0.104,1.869,26.286
1.14,0.147,1.954,3.774
1.16,0.185,1.774,-6.728
1.18,0.218,1.565,-9.345
1.20,0.247,1.374,-9.341
1.22,0.272,1.192,-9.024
1.24,0.294,1.027,-9.325
1.26,0.314,0.832,-10.202
1.28,0.328,0.604,-10.471
1.30,0.338,0.399,-10.110
1.32,0.344,0.207,-10.007
1.34,0.346,0.007,-10.247
1.36,0.344,-0.204,-10.409
1.38,0.338,-0.422,-10.004
1.40,0.327,-0.610,-9.333
1.42,0.314,-0.782,-9.213
1.44,0.296,-0.975,-9.303
1.46,0.274,-1.158,-9.315
1.48,0.250,-1.343,-9.528
1.50,0.221,-1.536,-9.605
1.52,0.188,-1.745,-7.720
1.54,0.151,-1.933,0.564
1.56,0.111,-1.945,20.149
1.58,0.062,-1.340,47.296
1.60,0.034,0.272,57.213
1.62,0.080,1.584,36.585
1.64,0.121,1.810,9.928
1.66,0.157,1.685,-4.264
1.68,0.188,1.478,-8.977
1.70,0.216,1.278,-9.463
1.72,0.239,1.108,-9.644
1.74,0.261,0.894,-9.768
1.76,0.274,0.703,-9.318
1.78,0.289,0.516,-8.691
1.80,0.294,0.369,-8.603
1.82,0.305,0.188,-9.366
1.84,0.302,-0.020,-9.733
1.86,0.302,-0.178,-10.995
1.88,0.298,-0.463,-11.920
1.90,0.283,-0.704,-10.730
1.92,0.268,-0.883,-9.969
1.94,0.248,-1.071,-10.504
1.96,0.226,-1.284,-11.696
1.98,0.198,-1.582,-10.445
2.00,0.160,-1.780,-3.865
2.02,0.126,-1.842,9.725
2.04,0.084,-1.633,33.616
2.06,0.041,-0.467,53.441
2.08,0.057,1.058,46.280
2.10,0.101,1.741,20.746
2.12,0.140,1.731,0.322
2.14,0.172,1.512,-8.344
2.16,0.199,1.302,-10.403
2.18,0.224,1.093,-10.997
2.20,0.244,0.858,-11.109
2.22,0.258,0.636,-10.695
2.24,0.269,0.432,-10.275
2.26,0.276,0.235,-10.158
2.28,0.279,0.012,-9.591
2.30,0.275,-0.150,-9.100
2.32,0.273,-0.312,-10.286
2.34,0.264,-0.572,-11.069
2.36,0.249,-0.784,-10.649
2.38,0.233,-0.988,-10.546
2.40,0.209,-1.201,-10.501
2.42,0.185,-1.406,-9.999
2.44,0.154,-1.648,-5.510
2.46,0.118,-1.781,7.858
2.48,0.078,-1.584,31.630
2.50,0.034,-0.429,49.138
2.52,0.056,0.950,39.395
2.54,0.093,1.404,15.792
2.56,0.121,1.370,-0.078
2.58,0.148,1.225,-6.904
2.60,0.170,1.051,-9.686
2.62,0.191,0.824,-10.849
2.64,0.203,0.585,-10.352
2.66,0.213,0.396,-9.245
2.68,0.218,0.242,-9.271
2.70,0.224,0.045,-10.124
2.72,0.221,-0.181,-10.260
2.74,0.216,-0.388,-9.458
2.76,0.204,-0.547,-9.194
2.78,0.195,-0.729,-10.334
2.80,0.176,-0.954,-12.273
2.82,0.156,-1.188,-14.401
2.84,0.132,-1.552,-12.490
2.86,0.100,-2.078,7.785
2.88,0.025,-1.486,38.092
2.90,0.025,-0.114,47.598
2.92,0.032,0.834,35.485
2.94,0.065,1.397,16.037
2.96,0.097,1.407,-0.648
2.98,0.125,1.196,-8.260
3.00,0.144,0.981,-10.179
3.02,0.163,0.793,-11.164
3.04,0.177,0.527,-11.488
3.06,0.183,0.329,-11.403
3.08,0.192,0.056,-10.733
3.10,0.183,-0.124,-9.758
3.12,0.186,-0.234,-15.017
3.14,0.176,-0.569,-26.408
3.16,0.169,-1.196,-37.297
3.18,0.153,-2.723,-17.209
3.20,0.022,-2.508,29.244
3.22,0.019,-0.774,41.672
3.24,0.021,-0.201,23.459
3.26,0.019,-0.038,9.387
3.28,0.019,-0.007,3.134
3.30,0.018,0.045,0.908
3.32,0.021,0.048,-1.267
3.34,0.021,-0.016,-2.491
3.36,0.022,-0.109,-0.958
3.38,0.015,-0.098,2.396
3.40,0.015,0.045,2.871
3.42,0.018,0.105,-0.927
3.44,0.022,0.022,-5.236
3.46,0.022,-0.170,-6.050
3.48,0.015,-0.351,-0.904
3.50,0.000,-0.202,4.179
3.52,0.007,-0.030,2.718
3.54,0.005,-0.099,0.938
3.56,0.000,-0.075,2.229
3.58,0.000,0.024,2.271
3.60,0.003,0.046,0.925
3.62,0.001,0.069,-0.950
3.64,0.008,0.014,-2.767
3.66,0.003,-0.106,-1.576
3.68,0.000,-0.077,0.901
3.70,0.000,-0.021,1.382
3.72,0.000,-0.001,1.596
3.74,0.000,-0.002,6.145
3.76,0.000,0.015,27.217
3.78,0.000,0.599,68.259
3.80,0.000,2.342,112.166
3.82,0.011,7.129,59.589
3.84,0.398,6.804,-81.917
3.86,0.391,1.624,-126.389
3.88,0.377,-0.308,-72.805
3.90,0.352,-0.880,-22.843
3.92,0.336,-0.622,1.055
3.94,0.330,-0.478,1.921
3.96,0.321,-0.514,-1.774
3.98,0.310,-0.625,-3.164
4.00,0.294,-0.665,-3.045
4.02,0.284,-0.702,-4.575
4.04,0.268,-0.867,-4.653
4.06,0.247,-0.913,-2.648
4.08,0.236,-1.120,5.179
4.10,0.188,-0.716,12.284
4.12,0.206,-0.257,3.251
4.14,0.196,-0.577,-6.487
4.16,0.180,-0.795,-4.673
4.18,0.158,-0.795,-0.498
4.20,0.147,-0.710,-0.213
4.22,0.133,-0.760,-2.186
4.24,0.117,-0.834,-2.297
4.26,0.101,-0.927,1.417
4.28,0.077,-0.859,8.729
4.30,0.060,-0.504,12.693
4.32,0.059,-0.235,11.207
4.34,0.053,-0.076,9.885
4.36,0.054,0.140,9.504
4.38,0.061,0.290,10.237
4.40,0.065,0.497,13.123
4.42,0.077,0.848,14.217
4.44,0.100,1.149,11.296
4.46,0.126,1.322,6.817
4.48,0.154,1.416,2.370
4.50,0.184,1.407,-1.333
4.52,0.211,1.326,-3.161
4.54,0.236,1.258,-3.845
4.56,0.262,1.189,-5.848
4.58,0.285,1.064,-12.064
4.60,0.304,0.908,-32.675
4.62,0.323,0.200,-71.137
4.64,0.336,-1.654,-109.363
4.66,0.324,-5.963,-63.250
4.68,0.000,-5.893,56.657
4.70,0.000,-1.811,95.233
4.72,0.001,-0.446,55.452
4.74,0.000,-0.002,21.299
4.76,0.000,0.002,4.343
4.78,0.001,-0.003,0.588
4.80,0.000,-0.003,0.081
4.82,0.000,0.005,0.006
4.84,0.001,-0.003,-0.055
4.86,0.000,-0.003,0.076
4.88,0.000,0.003,0.073
4.90,0.000,0.004,-0.068
4.92,0.001,-0.001,-0.145
4.94,0.000,-0.007,-0.010
4.96,0.000,-0.001,0.132
4.98,0.000,0.003,0.100
5.00,0.000,0.002,0.040
