"Time","Force","Position","Velocity","Acceleration"
0.033300,1.168,-0.059,-0.448,-1.174
0.066600,1.444,-0.073,-0.485,-1.159
0.099900,1.781,-0.089,-0.533,-0.927
0.133200,2.165,-0.109,-0.561,-0.284
0.166500,2.562,-0.128,-0.558,0.605
0.199800,2.952,-0.147,-0.523,1.578
0.233100,3.306,-0.164,-0.450,2.462
0.266400,3.619,-0.178,-0.351,3.091
0.299700,3.847,-0.187,-0.239,3.531
0.333000,3.991,-0.194,-0.116,3.890
0.366300,4.051,-0.196,0.024,4.078
0.399600,3.991,-0.192,0.168,3.891
0.432900,3.847,-0.184,0.292,3.381
0.466200,3.607,-0.172,0.395,2.735
0.499500,3.306,-0.157,0.476,1.990
0.532800,2.940,-0.140,0.530,1.139
0.566100,2.556,-0.121,0.557,0.132
0.599400,2.159,-0.102,0.541,-0.941
0.632700,1.787,-0.084,0.488,-1.843
0.666000,1.444,-0.069,0.419,-2.703
0.699300,1.174,-0.055,0.306,-3.427
0.732600,0.982,-0.048,0.176,-3.704
0.765900,0.868,-0.043,0.053,-3.769
0.799200,0.868,-0.044,-0.072,-3.839
0.832500,0.964,-0.048,-0.205,-3.785
0.865800,1.150,-0.058,-0.339,-3.286
0.899100,1.408,-0.072,-0.434,-2.454
0.932400,1.751,-0.088,-0.500,-1.621
0.965700,2.117,-0.105,-0.542,-0.752
0.999000,2.507,-0.125,-0.552,0.184
1.032300,2.904,-0.143,-0.530,1.136
1.065600,3.258,-0.161,-0.479,2.140
1.098900,3.577,-0.176,-0.385,3.057
1.132200,3.811,-0.187,-0.266,3.670
1.165500,3.973,-0.194,-0.136,4.055
1.198800,4.027,-0.196,0.011,4.169
1.232100,3.997,-0.193,0.153,3.916
1.265400,3.859,-0.186,0.279,3.415
1.298700,3.637,-0.174,0.382,2.818
1.332000,3.342,-0.160,0.467,2.151
1.365300,2.988,-0.142,0.531,1.270
1.398600,2.610,-0.123,0.557,0.207
1.431900,2.207,-0.104,0.545,-0.862
1.465200,1.841,-0.086,0.496,-1.806
1.498500,1.486,-0.071,0.419,-2.554
1.531800,1.216,-0.058,0.324,-3.191
1.565100,1.006,-0.048,0.205,-3.728
1.598400,0.892,-0.044,0.067,-3.988
1.631700,0.880,-0.044,-0.070,-3.927
1.665000,0.952,-0.049,-0.199,-3.664
1.698300,1.132,-0.057,-0.318,-3.223
1.731600,1.372,-0.070,-0.419,-2.588
1.764900,1.709,-0.086,-0.495,-1.780
1.798200,2.063,-0.104,-0.542,-0.822
1.831500,2.453,-0.123,-0.552,0.203
1.864800,2.844,-0.142,-0.528,1.217
1.898100,3.210,-0.159,-0.467,2.115
1.931400,3.529,-0.173,-0.380,2.791
1.964700,3.775,-0.185,-0.279,3.351
1.998000,3.949,-0.193,-0.156,3.829
2.031300,4.009,-0.196,-0.016,4.038
2.064600,3.997,-0.194,0.124,3.883
2.097900,3.877,-0.187,0.249,3.486
2.131200,3.667,-0.177,0.356,3.018
2.164500,3.378,-0.163,0.453,2.399
2.197800,3.042,-0.146,0.522,1.556
2.231100,2.664,-0.128,0.563,0.500
2.264400,2.267,-0.107,0.562,-0.729
2.297700,1.889,-0.089,0.509,-1.779
2.331000,1.540,-0.073,0.434,-2.532
2.364300,1.252,-0.059,0.337,-3.149
2.397600,1.042,-0.050,0.221,-3.632
2.430900,0.922,-0.044,0.091,-3.934
2.464200,0.880,-0.043,-0.048,-3.982
2.497500,0.952,-0.047,-0.182,-3.754
2.530800,1.114,-0.056,-0.303,-3.329
2.564100,1.348,-0.068,-0.406,-2.777
2.597400,1.655,-0.083,-0.496,-1.937
2.630700,2.015,-0.102,-0.545,-0.811
2.664000,2.399,-0.121,-0.547,0.257
2.697300,2.790,-0.139,-0.523,1.180
2.730600,3.156,-0.156,-0.466,1.986
2.763900,3.480,-0.171,-0.387,2.680
2.797200,3.733,-0.183,-0.287,3.313
2.830500,3.913,-0.191,-0.163,3.786
2.863800,4.003,-0.194,-0.026,3.968
2.897100,3.991,-0.192,0.110,3.842
2.930400,3.877,-0.186,0.235,3.508
2.963700,3.691,-0.176,0.347,3.005
2.997000,3.414,-0.163,0.441,2.286
3.030300,3.084,-0.146,0.505,1.383
3.063600,2.712,-0.128,0.535,0.410
3.096900,2.321,-0.110,0.531,-0.539
3.130200,1.937,-0.092,0.496,-1.396
3.163500,1.594,-0.076,0.436,-2.152
3.196800,1.294,-0.062,0.350,-2.814
3.230100,1.084,-0.052,0.249,-3.460
3.263400,0.940,-0.045,0.118,-3.992
3.296700,0.898,-0.044,-0.031,-4.071
3.330000,0.958,-0.047,-0.164,-3.770
3.363300,1.090,-0.055,-0.284,-3.328
3.396600,1.324,-0.067,-0.390,-2.720
3.429900,1.619,-0.082,-0.470,-1.941
3.463200,1.973,-0.099,-0.522,-1.058
3.496500,2.351,-0.117,-0.541,-0.151
3.529800,2.748,-0.136,-0.530,0.726
3.563100,3.108,-0.153,-0.497,1.722
3.596400,3.438,-0.170,-0.418,2.749
3.629700,3.703,-0.182,-0.304,3.452
3.663000,3.883,-0.190,-0.179,3.846
3.696300,3.991,-0.194,-0.042,3.991
3.729600,3.985,-0.193,0.094,3.861
3.762900,3.895,-0.188,0.221,3.535
3.796200,3.703,-0.178,0.333,3.067
3.829500,3.450,-0.165,0.429,2.439
3.862800,3.126,-0.149,0.502,1.576
3.896100,2.748,-0.131,0.538,0.570
3.929400,2.369,-0.112,0.538,-0.397
3.962700,1.985,-0.094,0.510,-1.321
3.996000,1.643,-0.077,0.450,-2.205
4.029300,1.342,-0.063,0.361,-2.974
4.062600,1.114,-0.053,0.246,-3.537
4.095900,0.958,-0.047,0.118,-3.834
4.129200,0.910,-0.045,-0.016,-3.884
4.162500,0.946,-0.048,-0.147,-3.702
4.195800,1.078,-0.055,-0.267,-3.337
4.229100,1.300,-0.066,-0.373,-2.814
4.262400,1.582,-0.080,-0.461,-2.077
4.295700,1.925,-0.097,-0.517,-1.154
4.329000,2.303,-0.116,-0.538,-0.192
4.362300,2.694,-0.134,-0.529,0.769
4.395600,3.054,-0.152,-0.486,1.702
4.428900,3.390,-0.167,-0.412,2.503
4.462200,3.661,-0.180,-0.316,3.162
4.495500,3.859,-0.189,-0.197,3.636
4.528800,3.967,-0.193,-0.066,3.852
4.562100,3.985,-0.193,0.065,3.844
4.595400,3.907,-0.189,0.194,3.636
4.628700,3.733,-0.180,0.314,3.200
4.662000,3.486,-0.167,0.413,2.557
4.695300,3.156,-0.152,0.487,1.772
4.728600,2.808,-0.134,0.532,0.907
4.761900,2.423,-0.116,0.553,-0.129
4.795200,2.039,-0.096,0.529,-1.295
4.828500,1.697,-0.079,0.461,-2.277
4.861800,1.378,-0.065,0.368,-2.971
4.895100,1.150,-0.054,0.257,-3.449
4.928400,0.988,-0.047,0.137,-3.812
4.961700,0.922,-0.045,0.001,-4.033
4.995000,0.946,-0.047,-0.144,-3.849
5.028300,1.066,-0.055,-0.267,-3.276
5.061600,1.276,-0.066,-0.361,-2.661
5.094900,1.558,-0.079,-0.445,-1.987
5.128200,1.889,-0.096,-0.499,-1.164
5.161500,2.255,-0.113,-0.524,-0.280
5.194800,2.640,-0.132,-0.518,0.637
5.228100,3.006,-0.149,-0.480,1.517
5.261400,3.336,-0.164,-0.416,2.340
5.294700,3.619,-0.177,-0.322,3.045
5.328000,3.823,-0.186,-0.208,3.545
5.361300,3.949,-0.192,-0.079,3.799
5.394600,3.979,-0.192,0.052,3.805
5.427900,3.901,-0.188,0.178,3.639
5.461200,3.745,-0.180,0.302,3.205
5.494500,3.505,-0.167,0.400,2.496
5.527800,3.198,-0.152,0.469,1.691
5.561100,2.856,-0.135,0.514,0.814
5.594400,2.471,-0.117,0.526,-0.126
5.627700,2.099,-0.099,0.504,-1.018
5.661000,1.733,-0.083,0.455,-1.817
5.694300,1.432,-0.068,0.380,-2.512
5.727600,1.180,-0.057,0.289,-3.200
5.760900,1.018,-0.048,0.166,-3.814
5.794200,0.934,-0.046,0.021,-3.991
5.827500,0.952,-0.047,-0.110,-3.807
5.860800,1.054,-0.053,-0.236,-3.442
5.894100,1.252,-0.063,-0.343,-2.902
5.927400,1.522,-0.076,-0.432,-2.227
5.960700,1.847,-0.093,-0.498,-1.370
5.994000,2.207,-0.111,-0.525,-0.458
6.027300,2.586,-0.128,-0.524,0.372
6.060600,2.958,-0.146,-0.504,1.311
6.093900,3.294,-0.163,-0.442,2.371
6.127200,3.577,-0.176,-0.338,3.177
6.160500,3.799,-0.186,-0.219,3.617
6.193800,3.925,-0.191,-0.091,3.802
6.227100,3.973,-0.192,0.038,3.810
6.260400,3.907,-0.189,0.167,3.655
6.293700,3.763,-0.181,0.288,3.253
6.327000,3.535,-0.169,0.390,2.619
6.360300,3.246,-0.154,0.466,1.831
6.393600,2.892,-0.137,0.514,0.944
6.426900,2.525,-0.119,0.530,0.027
6.460200,2.147,-0.101,0.517,-0.917
6.493500,1.787,-0.084,0.469,-1.863
6.526800,1.480,-0.069,0.390,-2.681
6.560100,1.216,-0.057,0.285,-3.289
6.593400,1.042,-0.050,0.162,-3.619
6.626700,0.952,-0.046,0.039,-3.749
6.660000,0.958,-0.047,-0.089,-3.758
6.693300,1.048,-0.052,-0.219,-3.506
6.726600,1.228,-0.062,-0.331,-2.961
6.759900,1.492,-0.075,-0.420,-2.260
6.793200,1.805,-0.091,-0.484,-1.471
6.826500,2.153,-0.108,-0.520,-0.597
6.859800,2.531,-0.126,-0.526,0.353
6.893100,2.904,-0.144,-0.497,1.319
6.926400,3.240,-0.160,-0.435,2.181
6.959700,3.541,-0.173,-0.347,2.864
6.993000,3.763,-0.184,-0.239,3.355
7.026300,3.901,-0.190,-0.119,3.675
7.059600,3.961,-0.192,0.010,3.813
7.092900,3.913,-0.189,0.142,3.681
7.126200,3.775,-0.182,0.262,3.297
7.159500,3.565,-0.171,0.366,2.724
7.192800,3.282,-0.157,0.449,1.969
7.226100,2.940,-0.141,0.500,1.114
7.259400,2.580,-0.123,0.523,0.231
7.292700,2.201,-0.105,0.516,-0.665
7.326000,1.847,-0.088,0.478,-1.542
7.359300,1.522,-0.072,0.415,-2.469
7.392600,1.258,-0.059,0.313,-3.339
7.425900,1.066,-0.051,0.184,-3.873
7.459200,0.970,-0.046,0.041,-3.930
7.492500,0.964,-0.049,-0.089,-3.627
7.525800,1.042,-0.053,-0.198,-3.315
7.559100,1.210,-0.061,-0.310,-2.946
7.592400,1.456,-0.074,-0.403,-2.317
7.625700,1.763,-0.089,-0.468,-1.534
7.659000,2.111,-0.106,-0.507,-0.668
7.692300,2.489,-0.124,-0.515,0.255
7.725600,2.850,-0.141,-0.490,1.170
7.758900,3.204,-0.157,-0.434,2.008
7.792200,3.499,-0.171,-0.352,2.700
7.825500,3.733,-0.181,-0.251,3.252
7.858800,3.883,-0.188,-0.132,3.640
7.892100,3.937,-0.190,-0.002,3.770
7.925400,3.919,-0.188,0.126,3.657
7.958700,3.787,-0.182,0.248,3.314
7.992000,3.589,-0.171,0.352,2.767
8.025300,3.312,-0.158,0.437,2.043
8.058600,2.988,-0.141,0.493,1.158
8.091900,2.622,-0.124,0.514,0.252
8.125200,2.249,-0.106,0.509,-0.644
8.158500,1.889,-0.089,0.471,-1.502
8.191800,1.564,-0.074,0.404,-2.225
8.225100,1.294,-0.062,0.322,-2.899
8.258400,1.102,-0.052,0.213,-3.548
8.291700,0.994,-0.047,0.075,-3.870
8.325000,0.964,-0.047,-0.056,-3.827
8.358300,1.036,-0.051,-0.183,-3.584
8.391600,1.192,-0.060,-0.302,-3.092
8.424900,1.420,-0.072,-0.395,-2.413
8.458200,1.733,-0.086,-0.464,-1.648
8.491500,2.069,-0.103,-0.507,-0.806
8.524800,2.447,-0.121,-0.519,0.077
8.558100,2.808,-0.139,-0.500,0.940
8.591400,3.156,-0.155,-0.458,1.842
8.624700,3.456,-0.170,-0.380,2.762
8.658000,3.697,-0.181,-0.266,3.415
8.691300,3.853,-0.188,-0.142,3.728
8.724600,3.931,-0.191,-0.012,3.802
8.757900,3.913,-0.189,0.118,3.639
8.791200,3.805,-0.182,0.235,3.304
8.824500,3.613,-0.173,0.340,2.838
8.857800,3.342,-0.159,0.429,2.174
8.891100,3.018,-0.144,0.491,1.324
8.924400,2.664,-0.126,0.521,0.362
8.957700,2.291,-0.108,0.515,-0.609
8.991000,1.931,-0.091,0.477,-1.485
9.024300,1.613,-0.075,0.414,-2.271
9.057600,1.330,-0.063,0.324,-2.959
9.090900,1.132,-0.053,0.211,-3.450
9.124200,1.006,-0.048,0.088,-3.712
9.157500,0.970,-0.047,-0.041,-3.756
9.190800,1.036,-0.051,-0.170,-3.533
9.224100,1.174,-0.059,-0.282,-3.093
9.257400,1.408,-0.070,-0.379,-2.511
9.290700,1.685,-0.085,-0.454,-1.776
9.324000,2.027,-0.101,-0.500,-0.933
9.357300,2.393,-0.119,-0.518,-0.015
9.390600,2.760,-0.137,-0.502,0.934
9.423900,3.108,-0.153,-0.454,1.821
9.457200,3.414,-0.168,-0.377,2.576
9.490500,3.661,-0.179,-0.277,3.133
9.523800,3.829,-0.186,-0.164,3.509
9.557100,3.913,-0.190,-0.040,3.740
9.590400,3.907,-0.189,0.093,3.700
9.623700,3.811,-0.184,0.214,3.391
9.657000,3.631,-0.175,0.323,2.909
9.690300,3.378,-0.162,0.412,2.261
9.723600,3.060,-0.147,0.475,1.525
9.756900,2.712,-0.130,0.515,0.706
9.790200,2.351,-0.112,0.530,-0.335
9.823500,1.985,-0.093,0.496,-1.435
9.856800,1.661,-0.078,0.424,-2.229
9.890100,1.378,-0.064,0.337,-2.635
9.923400,1.162,-0.055,0.237,-2.640
9.956700,1.030,-0.049,0.150,-2.344
9.990000,0.988,-0.047,0.090,-2.053
