"Time","Force","Position","Velocity","Acceleration"
0.033300,-0.544,0.020,-0.450,-2.246
0.066600,-0.195,0.006,-0.517,-2.490
0.099900,0.171,-0.012,-0.607,-2.644
0.133200,0.639,-0.033,-0.716,-2.139
0.166500,1.144,-0.061,-0.784,-0.590
0.199800,1.739,-0.088,-0.763,1.314
0.233100,2.219,-0.113,-0.688,3.038
0.266400,2.766,-0.135,-0.556,4.543
0.299700,3.078,-0.152,-0.376,5.677
0.333000,3.342,-0.161,-0.165,6.327
0.366300,3.372,-0.163,0.059,6.474
0.399600,3.282,-0.157,0.281,6.082
0.432900,3.024,-0.144,0.478,5.158
0.466200,2.610,-0.124,0.634,3.835
0.499500,2.159,-0.100,0.747,2.037
0.532800,1.570,-0.072,0.780,-0.079
0.566100,1.072,-0.046,0.735,-2.020
0.599400,0.507,-0.022,0.637,-3.682
0.632700,0.111,-0.002,0.483,-5.055
0.666000,-0.310,0.011,0.290,-6.045
0.699300,-0.496,0.018,0.070,-6.594
0.732600,-0.580,0.016,-0.166,-6.508
0.765900,-0.225,0.006,-0.385,-5.689
0.799200,0.087,-0.010,-0.559,-4.344
0.832500,0.555,-0.033,-0.679,-2.738
0.865800,1.054,-0.057,-0.744,-1.008
0.899100,1.625,-0.084,-0.750,0.809
0.932400,2.159,-0.109,-0.688,2.546
0.965700,2.634,-0.131,-0.572,4.016
0.999000,3.036,-0.148,-0.416,5.278
1.032300,3.240,-0.160,-0.214,6.228
1.065600,3.372,-0.163,0.017,6.550
1.098900,3.276,-0.159,0.241,6.212
1.132200,3.090,-0.146,0.443,5.353
1.165500,2.688,-0.128,0.607,4.074
1.198800,2.255,-0.105,0.729,2.323
1.232100,1.685,-0.077,0.772,0.270
1.265400,1.156,-0.051,0.740,-1.622
1.298700,0.627,-0.027,0.656,-3.264
1.332000,0.183,-0.006,0.519,-4.718
1.365300,-0.165,0.009,0.335,-5.865
1.398600,-0.484,0.017,0.114,-6.464
1.431900,-0.526,0.017,-0.114,-6.413
1.465200,-0.292,0.009,-0.329,-5.789
1.498500,0.039,-0.006,-0.511,-4.702
1.531800,0.447,-0.026,-0.651,-3.253
1.565100,0.940,-0.051,-0.737,-1.479
1.598400,1.462,-0.077,-0.753,0.413
1.631700,2.033,-0.103,-0.706,2.180
1.665000,2.501,-0.126,-0.599,3.674
1.698300,2.940,-0.143,-0.457,4.960
1.731600,3.186,-0.158,-0.266,6.032
1.764900,3.348,-0.162,-0.036,6.466
1.798200,3.294,-0.159,0.184,6.235
1.831500,3.120,-0.150,0.390,5.527
1.864800,2.784,-0.133,0.563,4.381
1.898100,2.339,-0.111,0.694,2.799
1.931400,1.841,-0.085,0.761,0.824
1.964700,1.276,-0.058,0.749,-1.158
1.998000,0.784,-0.033,0.677,-2.918
2.031300,0.273,-0.012,0.547,-4.403
2.064600,-0.057,0.004,0.374,-5.509
2.097900,-0.406,0.014,0.172,-6.248
2.131200,-0.472,0.017,-0.056,-6.458
2.164500,-0.364,0.010,-0.279,-5.939
2.197800,-0.021,-0.003,-0.466,-4.881
2.231100,0.321,-0.022,-0.611,-3.507
2.264400,0.820,-0.045,-0.706,-1.880
2.297700,1.330,-0.071,-0.742,-0.089
2.331000,1.895,-0.096,-0.711,1.673
2.364300,2.387,-0.119,-0.623,3.208
2.397600,2.820,-0.139,-0.495,4.619
2.430900,3.138,-0.154,-0.314,5.873
2.464200,3.282,-0.161,-0.087,6.521
2.497500,3.318,-0.160,0.142,6.429
2.530800,3.144,-0.151,0.361,5.631
2.564100,2.868,-0.134,0.527,4.410
2.597400,2.447,-0.115,0.655,3.068
2.630700,1.973,-0.089,0.743,1.350
2.664000,1.420,-0.063,0.752,-0.593
2.697300,0.898,-0.038,0.701,-2.466
2.730600,0.417,-0.015,0.586,-4.188
2.763900,0.015,0.003,0.408,-5.407
2.797200,-0.292,0.013,0.205,-5.970
2.830500,-0.460,0.016,0.001,-6.141
2.863800,-0.406,0.013,-0.207,-6.041
2.897100,-0.105,0.003,-0.418,-5.333
2.930400,0.219,-0.016,-0.586,-3.872
2.963700,0.682,-0.038,-0.684,-2.108
2.997000,1.216,-0.063,-0.721,-0.461
3.030300,1.733,-0.087,-0.710,1.050
3.063600,2.261,-0.112,-0.653,2.600
3.096900,2.682,-0.132,-0.541,4.210
3.130200,3.042,-0.150,-0.362,5.468
3.163500,3.246,-0.157,-0.157,6.078
3.196800,3.300,-0.160,0.049,6.316
3.230100,3.210,-0.155,0.274,6.082
3.263400,2.952,-0.141,0.480,5.033
3.296700,2.598,-0.121,0.627,3.397
3.330000,2.105,-0.098,0.706,1.649
3.363300,1.582,-0.072,0.733,-0.051
3.396600,1.036,-0.047,0.705,-1.776
3.429900,0.549,-0.024,0.616,-3.468
3.463200,0.135,-0.005,0.465,-4.859
3.496500,-0.183,0.008,0.278,-5.763
3.529800,-0.424,0.014,0.072,-6.244
3.563100,-0.400,0.013,-0.153,-6.155
3.596400,-0.183,0.004,-0.359,-5.379
3.629700,0.159,-0.012,-0.521,-4.201
3.663000,0.555,-0.032,-0.642,-2.808
3.696300,1.060,-0.056,-0.716,-1.152
3.729600,1.570,-0.082,-0.725,0.681
3.762900,2.087,-0.106,-0.667,2.409
3.796200,2.574,-0.127,-0.554,3.823
3.829500,2.934,-0.144,-0.407,5.006
3.862800,3.204,-0.156,-0.219,5.995
3.896100,3.282,-0.159,0.010,6.374
3.929400,3.246,-0.155,0.228,5.993
3.962700,3.012,-0.144,0.422,5.096
3.996000,2.676,-0.125,0.577,3.816
4.029300,2.231,-0.104,0.682,2.296
4.062600,1.703,-0.079,0.736,0.566
4.095900,1.204,-0.053,0.724,-1.296
4.129200,0.670,-0.029,0.647,-3.072
4.162500,0.261,-0.008,0.511,-4.539
4.195800,-0.099,0.006,0.332,-5.543
4.229100,-0.328,0.015,0.128,-6.049
4.262400,-0.436,0.015,-0.081,-6.128
4.295700,-0.243,0.009,-0.291,-5.765
4.329000,0.045,-0.005,-0.483,-4.772
4.362300,0.447,-0.024,-0.622,-3.299
4.395600,0.898,-0.048,-0.708,-1.589
4.428900,1.438,-0.073,-0.730,0.219
4.462200,1.943,-0.098,-0.692,1.971
4.495500,2.435,-0.121,-0.594,3.520
4.528800,2.838,-0.139,-0.447,4.696
4.562100,3.120,-0.151,-0.271,5.495
4.595400,3.270,-0.157,-0.076,6.042
4.628700,3.246,-0.157,0.139,6.230
4.662000,3.096,-0.148,0.358,5.734
4.695300,2.772,-0.133,0.545,4.453
4.728600,2.375,-0.110,0.668,2.687
4.761900,1.859,-0.086,0.722,0.883
4.795200,1.348,-0.061,0.723,-0.840
4.828500,0.832,-0.037,0.666,-2.514
4.861800,0.375,-0.015,0.554,-4.059
4.895100,0.009,0.002,0.387,-5.270
4.928400,-0.273,0.012,0.187,-5.944
4.961700,-0.394,0.015,-0.022,-6.116
4.995000,-0.304,0.010,-0.232,-5.804
5.028300,-0.027,-0.001,-0.423,-4.954
5.061600,0.303,-0.019,-0.574,-3.668
5.094900,0.772,-0.041,-0.675,-2.102
5.128200,1.264,-0.065,-0.719,-0.373
5.161500,1.805,-0.091,-0.699,1.342
5.194800,2.297,-0.113,-0.622,2.863
5.228100,2.724,-0.133,-0.507,4.279
5.261400,3.036,-0.149,-0.335,5.514
5.294700,3.222,-0.156,-0.122,6.142
5.328000,3.246,-0.157,0.093,6.100
5.361300,3.126,-0.150,0.296,5.565
5.394600,2.868,-0.136,0.475,4.590
5.427900,2.489,-0.117,0.614,3.195
5.461200,2.021,-0.094,0.695,1.539
5.494500,1.492,-0.069,0.718,-0.184
5.527800,0.988,-0.044,0.682,-1.882
5.561100,0.495,-0.023,0.588,-3.423
5.594400,0.123,-0.004,0.452,-4.829
5.627700,-0.189,0.009,0.259,-5.911
5.661000,-0.352,0.014,0.036,-6.264
5.694300,-0.334,0.011,-0.176,-5.970
5.727600,-0.099,0.002,-0.373,-5.199
5.760900,0.213,-0.015,-0.533,-4.009
5.794200,0.627,-0.035,-0.647,-2.535
5.827500,1.120,-0.059,-0.708,-0.849
5.860800,1.637,-0.084,-0.706,0.911
5.894100,2.147,-0.108,-0.645,2.564
5.927400,2.586,-0.128,-0.528,3.958
5.960700,2.940,-0.144,-0.370,4.973
5.994000,3.168,-0.153,-0.191,5.718
6.027300,3.240,-0.158,0.018,6.127
6.060600,3.162,-0.153,0.237,5.865
6.093900,2.946,-0.141,0.426,4.995
6.127200,2.604,-0.123,0.578,3.741
6.160500,2.165,-0.101,0.682,2.200
6.193800,1.649,-0.077,0.733,0.390
6.227100,1.144,-0.050,0.714,-1.596
6.260400,0.651,-0.027,0.619,-3.358
6.293700,0.243,-0.008,0.480,-4.742
6.327000,-0.075,0.007,0.291,-5.627
6.360300,-0.304,0.012,0.086,-5.847
6.393600,-0.334,0.012,-0.109,-5.658
6.426900,-0.177,0.004,-0.296,-5.207
6.460200,0.117,-0.008,-0.465,-4.389
6.493500,0.489,-0.027,-0.602,-3.105
6.526800,0.964,-0.050,-0.681,-1.488
6.560100,1.468,-0.074,-0.703,0.225
6.593400,1.967,-0.098,-0.665,1.896
6.626700,2.435,-0.120,-0.572,3.405
6.660000,2.820,-0.138,-0.429,4.592
6.693300,3.096,-0.149,-0.259,5.465
6.726600,3.210,-0.156,-0.059,6.032
6.759900,3.198,-0.154,0.161,5.991
6.793200,3.024,-0.144,0.358,5.324
6.826500,2.712,-0.129,0.523,4.264
6.859800,2.303,-0.109,0.656,2.700
6.893100,1.811,-0.083,0.716,0.726
6.926400,1.312,-0.059,0.699,-1.126
6.959700,0.808,-0.036,0.632,-2.682
6.993000,0.375,-0.016,0.514,-3.983
7.026300,0.027,-0.001,0.362,-5.048
7.059600,-0.219,0.010,0.170,-5.772
7.092900,-0.316,0.011,-0.039,-5.922
7.126200,-0.219,0.007,-0.238,-5.558
7.159500,0.027,-0.005,-0.421,-4.729
7.192800,0.369,-0.023,-0.565,-3.462
7.226100,0.796,-0.044,-0.660,-1.905
7.259400,1.294,-0.068,-0.694,-0.245
7.292700,1.799,-0.092,-0.673,1.345
7.326000,2.291,-0.114,-0.602,2.831
7.359300,2.688,-0.133,-0.484,4.244
7.392600,3.006,-0.148,-0.315,5.442
7.425900,3.174,-0.155,-0.104,6.040
7.459200,3.192,-0.155,0.107,5.960
7.492500,3.084,-0.147,0.304,5.413
7.525800,2.808,-0.134,0.475,4.521
7.559100,2.447,-0.115,0.619,3.145
7.592400,1.973,-0.091,0.698,1.327
7.625700,1.486,-0.067,0.706,-0.488
7.659000,0.976,-0.043,0.659,-2.110
7.692300,0.525,-0.021,0.560,-3.528
7.725600,0.147,-0.004,0.418,-4.698
7.758900,-0.129,0.007,0.240,-5.559
7.792200,-0.273,0.013,0.035,-5.949
7.825500,-0.261,0.010,-0.173,-5.749
7.858800,-0.057,0.001,-0.362,-5.020
7.892100,0.237,-0.015,-0.518,-3.883
7.925400,0.639,-0.035,-0.627,-2.467
7.958700,1.114,-0.058,-0.687,-0.876
7.992000,1.619,-0.083,-0.686,0.730
8.025300,2.111,-0.105,-0.634,2.222
8.058600,2.556,-0.126,-0.540,3.732
8.091900,2.886,-0.143,-0.384,5.103
8.125200,3.120,-0.153,-0.182,5.868
8.158500,3.180,-0.155,0.026,5.988
8.191800,3.126,-0.151,0.228,5.640
8.225100,2.916,-0.139,0.411,4.878
8.258400,2.580,-0.123,0.566,3.639
8.291700,2.153,-0.100,0.667,1.963
8.325000,1.661,-0.076,0.698,0.199
8.358300,1.162,-0.052,0.677,-1.478
8.391600,0.682,-0.030,0.597,-3.033
8.424900,0.279,-0.011,0.466,-4.290
8.458200,-0.033,0.002,0.303,-5.221
8.491500,-0.231,0.010,0.108,-5.749
8.524800,-0.273,0.010,-0.094,-5.754
8.558100,-0.129,0.003,-0.286,-5.296
8.591400,0.141,-0.010,-0.460,-4.357
8.624700,0.501,-0.029,-0.588,-2.998
8.658000,0.946,-0.051,-0.665,-1.431
8.691300,1.450,-0.074,-0.684,0.174
8.724600,1.943,-0.097,-0.650,1.698
8.757900,2.393,-0.119,-0.573,3.242
8.791200,2.772,-0.137,-0.433,4.681
8.824500,3.036,-0.149,-0.245,5.600
8.857800,3.162,-0.154,-0.045,5.978
8.891100,3.156,-0.152,0.164,5.871
8.924400,2.988,-0.143,0.364,5.131
8.957700,2.694,-0.127,0.521,3.851
8.991000,2.303,-0.107,0.625,2.357
9.024300,1.823,-0.084,0.679,0.786
9.057600,1.336,-0.060,0.679,-0.830
9.090900,0.856,-0.037,0.624,-2.415
9.124200,0.423,-0.017,0.512,-3.806
9.157500,0.069,-0.002,0.362,-4.879
9.190800,-0.153,0.008,0.178,-5.578
9.224100,-0.267,0.010,-0.023,-5.794
9.257400,-0.177,0.006,-0.221,-5.509
9.290700,0.033,-0.005,-0.403,-4.734
9.324000,0.363,-0.021,-0.550,-3.490
9.357300,0.778,-0.043,-0.642,-1.984
9.390600,1.264,-0.066,-0.681,-0.434
9.423900,1.751,-0.089,-0.670,1.120
9.457200,2.237,-0.111,-0.610,2.722
9.490500,2.640,-0.132,-0.489,4.265
9.523800,2.952,-0.146,-0.312,5.348
9.557100,3.132,-0.153,-0.115,5.826
9.590400,3.156,-0.153,0.087,5.860
9.623700,3.060,-0.147,0.285,5.462
9.657000,2.796,-0.134,0.468,4.456
9.690300,2.453,-0.114,0.598,2.915
9.723600,1.997,-0.092,0.664,1.249
9.756900,1.522,-0.069,0.672,-0.228
9.790200,1.018,-0.047,0.649,-1.667
9.823500,0.573,-0.024,0.570,-3.246
9.856800,0.195,-0.007,0.422,-4.452
9.890100,-0.075,0.005,0.251,-4.917
9.923400,-0.231,0.010,0.075,-4.712
9.956700,-0.213,0.009,-0.076,-4.086
9.990000,-0.045,0.001,-0.179,-3.520
